/begin_header
/missing=-999
/delimiter=space
!
! Thuillier (2003) solar spectrum
! wavelength range 380 - 1100nm at 1nm increments
!
/fields=wavelength,irradiance
/end_header
380.00 117.138
381.00 119.118
382.00 98.6414
383.00 77.7508
384.00 83.7168
385.00 103.676
386.00 103.788
387.00 106.132
388.00 103.873
389.00 112.017
390.00 123.066
391.00 130.574
392.00 116.761
393.00 86.6983
394.00 85.5825
395.00 114.660
396.00 112.386
397.00 92.3792
398.00 127.790
399.00 164.211
400.00 173.917
401.00 179.950
402.00 187.879
403.00 184.100
404.00 179.551
405.00 174.751
406.00 168.223
407.00 167.684
408.00 169.526
409.00 171.368
410.00 164.855
411.00 161.305
412.00 167.280
413.00 173.255
414.00 176.883
415.00 176.260
416.00 176.930
417.00 177.655
418.00 171.739
419.00 174.742
420.00 171.671
421.00 182.126
422.00 176.853
423.00 169.382
424.00 173.852
425.00 173.100
426.00 172.928
427.00 167.374
428.00 165.210
429.00 156.564
430.00 136.055
431.00 138.173
432.00 160.949
433.00 168.141
434.00 163.902
435.00 166.080
436.00 179.328
437.00 182.723
438.00 172.220
439.00 169.469
440.00 182.485
441.00 184.883
442.00 195.345
443.00 195.407
444.00 195.816
445.00 194.583
446.00 187.538
447.00 196.641
448.00 201.908
449.00 202.696
450.00 209.129
451.00 213.750
452.00 208.194
453.00 200.261
454.00 201.706
455.00 206.789
456.00 209.451
457.00 212.569
458.00 209.579
459.00 204.821
460.00 205.487
461.00 209.051
462.00 211.289
463.00 211.654
464.00 206.570
465.00 202.021
466.00 205.313
467.00 198.159
468.00 202.776
469.00 203.943
470.00 198.571
471.00 199.143
472.00 208.184
473.00 205.826
474.00 208.251
475.00 210.024
476.00 206.914
477.00 208.946
478.00 210.904
479.00 210.443
480.00 209.462
481.00 209.389
482.00 208.899
483.00 206.238
484.00 203.296
485.00 193.735
486.00 177.277
487.00 177.282
488.00 191.606
489.00 195.220
490.00 202.604
491.00 200.454
492.00 192.194
493.00 196.057
494.00 197.362
495.00 203.388
496.00 198.197
497.00 200.728
498.00 194.624
499.00 193.659
500.00 193.393
501.00 186.367
502.00 186.558
503.00 193.841
504.00 190.450
505.00 195.779
506.00 201.398
507.00 200.012
508.00 196.782
509.00 193.552
510.00 189.867
511.00 191.691
512.00 191.949
513.00 188.051
514.00 184.111
515.00 184.984
516.00 179.127
517.00 167.261
518.00 165.139
519.00 173.889
520.00 181.298
521.00 184.294
522.00 184.100
523.00 183.059
524.00 187.462
525.00 189.627
526.00 180.924
527.00 171.697
528.00 180.956
529.00 188.769
530.00 189.209
531.00 191.418
532.00 190.078
533.00 187.219
534.00 185.345
535.00 188.053
536.00 191.721
537.00 184.562
538.00 188.006
539.00 186.494
540.00 180.546
541.00 179.400
542.00 185.810
543.00 184.689
544.00 187.812
545.00 187.848
546.00 188.208
547.00 187.408
548.00 183.822
549.00 188.442
550.00 187.938
551.00 186.138
552.00 188.868
553.00 185.069
554.00 187.579
555.00 188.264
556.00 185.222
557.00 180.262
558.00 180.768
559.00 174.461
560.00 176.756
561.00 182.173
562.00 178.659
563.00 178.906
564.00 179.604
565.00 179.363
566.00 175.801
567.00 180.688
568.00 179.673
569.00 178.540
570.00 178.384
571.00 173.816
572.00 181.395
573.00 183.936
574.00 183.709
575.00 180.143
576.00 179.083
577.00 181.212
578.00 177.917
579.00 177.746
580.00 179.824
581.00 179.975
582.00 181.984
583.00 182.541
584.00 182.216
585.00 179.171
586.00 175.894
587.00 179.279
588.00 178.278
589.00 164.023
590.00 169.347
591.00 175.249
592.00 177.171
593.00 175.842
594.00 177.251
595.00 175.689
596.00 176.245
597.00 177.495
598.00 175.019
599.00 174.773
600.00 174.280
601.00 172.111
602.00 170.028
603.00 173.705
604.00 175.217
605.00 174.741
606.00 172.950
607.00 173.287
608.00 170.942
609.00 169.899
610.00 168.683
611.00 169.764
612.00 168.843
613.00 167.848
614.00 164.473
615.00 166.934
616.00 161.928
617.00 160.792
618.00 165.868
619.00 165.914
620.00 167.474
621.00 168.236
622.00 165.663
623.00 165.351
624.00 163.732
625.00 162.334
626.00 162.971
627.00 166.844
628.00 167.300
629.00 166.439
630.00 164.319
631.00 163.294
632.00 161.898
633.00 163.672
634.00 162.483
635.00 163.040
636.00 162.561
637.00 163.119
638.00 164.490
639.00 162.657
640.00 160.015
641.00 159.032
642.00 159.400
643.00 159.939
644.00 159.670
645.00 158.942
646.00 158.246
647.00 158.884
648.00 159.436
649.00 155.579
650.00 157.038
651.00 160.078
652.00 158.716
653.00 157.001
654.00 155.420
655.00 151.168
656.00 131.808
657.00 139.501
658.00 151.184
659.00 152.495
660.00 153.989
661.00 154.564
662.00 155.754
663.00 153.098
664.00 152.099
665.00 153.577
666.00 152.759
667.00 151.773
668.00 151.875
669.00 152.861
670.00 151.604
671.00 151.148
672.00 150.275
673.00 149.743
674.00 149.096
675.00 148.716
676.00 148.628
677.00 148.501
678.00 148.165
679.00 147.845
680.00 147.674
681.00 147.489
682.00 147.160
683.00 146.485
684.00 145.373
685.00 144.772
686.00 145.444
687.00 146.115
688.00 146.248
689.00 146.814
690.00 147.488
691.00 146.992
692.00 145.889
693.00 145.861
694.00 146.056
695.00 144.421
696.00 145.248
697.00 144.740
698.00 142.992
699.00 145.593
700.00 144.287
701.00 142.442
702.00 142.244
703.00 142.897
704.00 143.864
705.00 144.097
706.00 142.578
707.00 141.880
708.00 141.185
709.00 139.646
710.00 140.180
711.00 138.711
712.00 137.487
713.00 137.333
714.00 137.861
715.00 136.392
716.00 136.912
717.00 137.274
718.00 136.328
719.00 134.398
720.00 135.352
721.00 135.160
722.00 135.112
723.00 135.129
724.00 135.298
725.00 134.441
726.00 133.977
727.00 134.085
728.00 132.445
729.00 130.450
730.00 132.301
731.00 132.631
732.00 132.742
733.00 131.910
734.00 133.047
735.00 131.527
736.00 130.326
737.00 130.440
738.00 129.316
739.00 126.468
740.00 127.308
741.00 126.021
742.00 126.310
743.00 128.302
744.00 128.408
745.00 128.585
746.00 128.708
747.00 128.816
748.00 128.825
749.00 126.934
750.00 126.683
751.00 125.565
752.00 126.607
753.00 126.095
754.00 127.251
755.00 126.927
756.00 126.715
757.00 127.147
758.00 126.380
759.00 126.008
760.00 126.242
761.00 124.807
762.00 123.962
763.00 125.327
764.00 125.815
765.00 124.958
766.00 119.711
767.00 122.773
768.00 124.077
769.00 122.792
770.00 122.565
771.00 122.459
772.00 122.004
773.00 121.481
774.00 120.311
775.00 119.141
776.00 117.971
777.00 116.801
778.00 116.182
779.00 116.984
780.00 116.026
781.00 116.367
782.00 117.078
783.00 115.442
784.00 114.729
785.00 115.621
786.00 115.695
787.00 115.467
788.00 115.178
789.00 115.357
790.00 115.558
791.00 114.363
792.00 113.323
793.00 111.380
794.00 110.291
795.00 112.289
796.00 113.648
797.00 113.378
798.00 113.232
799.00 112.491
800.00 111.651
801.00 112.241
802.00 112.160
803.00 111.848
804.00 111.862
805.00 110.216
806.00 111.563
807.00 110.940
808.00 110.579
809.00 109.827
810.00 109.713
811.00 110.734
812.00 111.047
813.00 111.386
814.00 110.799
815.00 110.370
816.00 110.053
817.00 109.577
818.00 108.057
819.00 106.575
820.00 106.002
821.00 106.214
822.00 106.174
823.00 107.296
824.00 106.994
825.00 106.641
826.00 106.872
827.00 107.183
828.00 106.359
829.00 105.997
830.00 105.445
831.00 105.070
832.00 105.030
833.00 102.555
834.00 101.934
835.00 103.581
836.00 104.393
837.00 104.158
838.00 102.285
839.00 102.374
840.00 103.849
841.00 103.612
842.00 101.677
843.00 100.164
844.00 100.245
845.00 102.327
846.00 102.612
847.00 100.362
848.00 100.308
849.00 97.9005
850.00 91.6749
851.00 97.4857
852.00 96.6970
853.00 93.0781
854.00 81.7941
855.00 88.8095
856.00 96.9572
857.00 96.5676
858.00 97.5663
859.00 97.1492
860.00 97.7243
861.00 97.6180
862.00 99.2367
863.00 100.090
864.00 99.4924
865.00 95.9955
866.00 83.9762
867.00 91.5352
868.00 97.4054
869.00 95.4836
870.00 97.0437
871.00 95.7829
872.00 96.3124
873.00 96.5406
874.00 94.0428
875.00 93.4788
876.00 94.7310
877.00 96.8270
878.00 96.1510
879.00 95.3738
880.00 95.4445
881.00 91.0147
882.00 94.8448
883.00 93.1560
884.00 93.8040
885.00 94.6414
886.00 91.4806
887.00 90.2360
888.00 93.0988
889.00 93.1611
890.00 93.2940
891.00 92.9495
892.00 91.9277
893.00 90.1202
894.00 91.9511
895.00 89.6410
896.00 92.5237
897.00 90.8465
898.00 90.9707
899.00 90.9900
900.00 88.9179
901.00 86.9414
902.00 85.0600
903.00 89.1928
904.00 90.5340
905.00 90.4517
906.00 88.2500
907.00 88.6610
908.00 87.9074
909.00 86.5398
910.00 87.1690
911.00 87.2290
912.00 86.3830
913.00 89.0714
914.00 88.3873
915.00 86.8530
916.00 87.7710
917.00 86.3723
918.00 86.2205
919.00 87.0749
920.00 86.2249
921.00 84.1896
922.00 83.9450
923.00 80.7617
924.00 83.7240
925.00 84.4681
926.00 81.9480
927.00 84.9585
928.00 85.6078
929.00 84.5113
930.00 84.5633
931.00 84.8668
932.00 84.2737
933.00 84.6221
934.00 84.4660
935.00 83.4172
936.00 82.8378
937.00 83.6013
938.00 83.3890
939.00 82.9647
940.00 82.5864
941.00 79.8520
942.00 78.7181
943.00 82.0483
944.00 80.4205
945.00 81.1690
946.00 81.5189
947.00 81.4967
948.00 81.8151
949.00 81.8152
950.00 81.4050
951.00 80.4676
952.00 80.8227
953.00 80.4620
954.00 79.2672
955.00 75.0368
956.00 79.3550
957.00 78.9527
958.00 79.4948
959.00 79.9532
960.00 79.0793
961.00 78.7240
962.00 78.8890
963.00 78.0694
964.00 77.8099
965.00 78.1989
966.00 76.7330
967.00 78.1507
968.00 77.3603
969.00 77.5592
970.00 77.8155
971.00 77.0647
972.00 77.5301
973.00 76.9975
974.00 75.8186
975.00 76.3918
976.00 76.6076
977.00 75.4218
978.00 76.4039
979.00 74.9250
980.00 75.6145
981.00 75.9742
982.00 75.8885
983.00 75.3418
984.00 74.9162
985.00 75.1396
986.00 74.6520
987.00 74.3264
988.00 74.4698
989.00 73.4340
990.00 73.7310
991.00 73.9816
992.00 73.8183
993.00 73.8375
994.00 73.8498
995.00 73.5558
996.00 73.4562
997.00 73.4906
998.00 73.3130
999.00 72.9670
1000.0 72.6410
1001.0 72.9310
1002.0 72.8340
1003.0 72.0152
1004.0 71.2324
1005.0 67.0612
1006.0 69.7404
1007.0 71.4110
1008.0 71.6425
1009.0 71.3528
1010.0 71.4960
1011.0 71.1064
1012.0 70.9928
1013.0 70.6988
1014.0 70.8516
1015.0 69.8150
1016.0 69.9655
1017.0 69.5225
1018.0 70.0201
1019.0 68.4620
1020.0 68.9267
1021.0 69.4313
1022.0 68.4150
1023.0 69.6189
1024.0 69.3525
1025.0 69.2119
1026.0 69.2040
1027.0 68.8845
1028.0 68.9964
1029.0 68.0477
1030.0 68.4444
1031.0 68.1834
1032.0 68.1305
1033.0 66.7903
1034.0 67.1795
1035.0 66.6678
1036.0 67.5822
1037.0 66.5718
1038.0 66.3312
1039.0 67.1002
1040.0 66.3121
1041.0 66.7362
1042.0 66.6692
1043.0 65.9336
1044.0 66.4418
1045.0 66.0967
1046.0 64.5808
1047.0 65.3912
1048.0 65.9920
1049.0 65.8114
1050.0 65.4736
1051.0 65.4849
1052.0 65.2404
1053.0 64.9859
1054.0 64.8140
1055.0 65.1528
1056.0 65.0654
1057.0 64.9814
1058.0 64.2836
1059.0 62.7207
1060.0 64.1340
1061.0 62.8860
1062.0 64.1721
1063.0 63.3737
1064.0 64.1100
1065.0 64.0637
1066.0 62.6218
1067.0 62.9060
1068.0 62.9931
1069.0 59.7325
1070.0 61.6440
1071.0 62.7333
1072.0 62.9764
1073.0 61.2767
1074.0 62.7620
1075.0 60.9664
1076.0 62.1825
1077.0 62.4401
1078.0 62.3222
1079.0 60.6585
1080.0 62.2505
1081.0 60.6356
1082.0 60.0510
1083.0 59.3010
1084.0 61.2828
1085.0 61.2139
1086.0 61.4748
1087.0 58.3734
1088.0 60.3173
1089.0 59.6105
1090.0 60.6153
1091.0 60.8621
1092.0 59.9155
1093.0 59.3049
1094.0 55.1437
1095.0 58.0533
1096.0 58.3900
1097.0 58.0990
1098.0 57.6530
1099.0 58.1713
1100.0 59.2037
